x,Pressure (p),Velocity (v)
-1.0,0.0016615572731739324,-0.0016615572731739324
-0.9966666666666667,0.001575087512990838,-0.001575087512990838
-0.9933333333333333,0.0014927859927651675,-0.0014927859927651675
-0.99,0.001414470532343388,-0.001414470532343388
-0.9866666666666667,0.0013399659026708196,-0.0013399659026708196
-0.9833333333333333,0.001269103612756821,-0.001269103612756821
-0.98,0.0012017217005510369,-0.0012017217005510369
-0.9766666666666667,0.0011376645277960701,-0.0011376645277960701
-0.9733333333333334,0.001076782578912495,-0.001076782578912495
-0.97,0.0010189322639630486,-0.0010189322639630486
-0.9666666666666667,0.0009639757257341771,-0.0009639757257341771
-0.9633333333333334,0.000911780650964814,-0.000911780650964814
-0.96,0.0008622200857444526,-0.0008622200857444526
-0.9566666666666667,0.0008151722550950287,-0.0008151722550950287
-0.9533333333333334,0.00077052038674402,-0.00077052038674402
-0.95,0.0007281525390894597,-0.0007281525390894597
-0.9466666666666667,0.000687961433351158,-0.000687961433351158
-0.9433333333333334,0.0006498442898963969,-0.0006498442898963969
-0.94,0.0006137026687227341,-0.0006137026687227341
-0.9366666666666666,0.0005794423140751859,-0.0005794423140751859
-0.9333333333333333,0.0005469730031700838,-0.0005469730031700838
-0.9299999999999999,0.0005162083989932201,-0.0005162083989932201
-0.9266666666666666,0.00048706590713556937,-0.00048706590713556937
-0.9233333333333333,0.0004594665366257732,-0.0004594665366257732
-0.92,0.0004333347647148916,-0.0004333347647148916
-0.9166666666666666,0.0004085984055654059,-0.0004085984055654059
-0.9133333333333333,0.0003851884827933064,-0.0003851884827933064
-0.91,0.00036303910580916395,-0.00036303910580916395
-0.9066666666666666,0.00034208734990145,-0.00034208734990145
-0.9033333333333333,0.00032227314000293783,-0.00032227314000293783
-0.9,0.0003035391380788668,-0.0003035391380788668
-0.8966666666666666,0.000285830634073615,-0.000285830634073615
-0.8933333333333333,0.00026909544035090343,-0.00026909544035090343
-0.89,0.00025328378956104977,-0.00025328378956104977
-0.8866666666666667,0.00023834823586750377,-0.00023834823586750377
-0.8833333333333333,0.00022424355946376105,-0.00022424355946376105
-0.88,0.0002109266743108569,-0.0002109266743108569
-0.8766666666666667,0.000198356539024859,-0.000198356539024859
-0.8733333333333333,0.00018649407084322375,-0.00018649407084322375
-0.87,0.00017530206259843518,-0.00017530206259843518
-0.8666666666666667,0.00016474510262706396,-0.00016474510262706396
-0.8633333333333333,0.00015478949754226597,-0.00015478949754226597
-0.86,0.00014540319779771414,-0.00014540319779771414
-0.8566666666666667,0.00013655572597107984,-0.00013655572597107984
-0.8533333333333333,0.00012821810769542678,-0.00012821810769542678
-0.85,0.00012036280516721316,-0.00012036280516721316
-0.8466666666666667,0.00011296365316004327,-0.00011296365316004327
-0.8433333333333333,0.00010599579747386585,-0.00010599579747386585
-0.84,9.943563574992762e-05,-9.943563574992762e-05
-0.8366666666666667,9.326076058251232e-05,-9.326076058251232e-05
-0.8333333333333333,8.744990485928057e-05,-8.744990485928057e-05
-0.83,8.198288926287764e-05,-8.198288926287764e-05
-0.8266666666666667,7.6840571867395e-05,-7.6840571867395e-05
-0.8233333333333334,7.200479976424892e-05,-7.200479976424892e-05
-0.82,6.745836265306432e-05,-6.745836265306432e-05
-0.8166666666666667,6.318494833422691e-05,-6.318494833422691e-05
-0.8133333333333334,5.916910004088115e-05,-5.916910004088115e-05
-0.81,5.539617554930499e-05,-5.539617554930499e-05
-0.8066666666666666,5.185230800777679e-05,-5.185230800777679e-05
-0.8033333333333333,4.852436842526246e-05,-4.852436842526246e-05
-0.8,4.5399929762484854e-05,-4.5399929762484854e-05
-0.7966666666666666,4.246723256919962e-05,-4.246723256919962e-05
-0.7933333333333333,3.9715152112768347e-05,-3.9715152112768347e-05
-0.79,3.7133166944408464e-05,-3.7133166944408464e-05
-0.7866666666666666,3.471132885079374e-05,-3.471132885079374e-05
-0.7833333333333333,3.2440234139982035e-05,-3.2440234139982035e-05
-0.78,3.0310996211945293e-05,-3.0310996211945293e-05
-0.7766666666666666,2.8315219365292264e-05,-2.8315219365292264e-05
-0.7733333333333333,2.644497379306782e-05,-2.644497379306782e-05
-0.77,2.4692771721817828e-05,-2.4692771721817828e-05
-0.7666666666666666,2.3051544649398932e-05,-2.3051544649398932e-05
-0.7633333333333333,2.1514621638298005e-05,-2.1514621638298005e-05
-0.76,2.007570862249527e-05,-2.007570862249527e-05
-0.7566666666666666,1.8728868687173183e-05,-1.8728868687173183e-05
-0.7533333333333333,1.7468503281812966e-05,-1.7468503281812966e-05
-0.75,1.628933432845802e-05,-1.628933432845802e-05
-0.7466666666666666,1.5186387188135213e-05,-1.5186387188135213e-05
-0.7433333333333333,1.415497444962479e-05,-1.415497444962479e-05
-0.74,1.3190680505944232e-05,-1.3190680505944232e-05
-0.7366666666666666,1.2289346885073609e-05,-1.2289346885073609e-05
-0.7333333333333334,1.1447058302583038e-05,-1.1447058302583038e-05
-0.73,1.0660129404940734e-05,-1.0660129404940734e-05
-0.7266666666666666,9.92509217337276e-06,-9.92509217337276e-06
-0.7233333333333334,9.238683959213895e-06,-9.238683959213895e-06
-0.72,8.597836122737572e-06,-8.597836122737572e-06
-0.7166666666666667,7.999663248474404e-06,-7.999663248474404e-06
-0.7133333333333334,7.441452911027218e-06,-7.441452911027218e-06
-0.71,6.920655966364583e-06,-6.920655966364583e-06
-0.7066666666666667,6.434877344524625e-06,-6.434877344524625e-06
-0.7033333333333334,5.981867320584247e-06,-5.981867320584247e-06
-0.7,5.559513241650137e-06,-5.559513241650137e-06
-0.6966666666666667,5.165831688501262e-06,-5.165831688501262e-06
-0.6933333333333334,4.798961051363944e-06,-4.798961051363944e-06
-0.69,4.45715450012513e-06,-4.45715450012513e-06
-0.6866666666666666,4.138773330091258e-06,-4.138773330091258e-06
-0.6833333333333333,3.842280665175511e-06,-3.842280665175511e-06
-0.6799999999999999,3.566235501150165e-06,-3.566235501150165e-06
-0.6766666666666666,3.309287072328148e-06,-3.309287072328148e-06
-0.6733333333333333,3.0701695257437285e-06,-3.0701695257437285e-06
-0.6699999999999999,2.847696887583873e-06,-2.847696887583873e-06
-0.6666666666666666,2.6407583072809784e-06,-2.6407583072809784e-06
-0.6633333333333333,2.448313565313786e-06,-2.448313565313786e-06
-0.6599999999999999,2.269388831378539e-06,-2.269388831378539e-06
-0.6566666666666666,2.1030726601840532e-06,-2.1030726601840532e-06
-0.6533333333333333,1.9485122126969352e-06,-1.9485122126969352e-06
-0.6499999999999999,1.804909691213134e-06,-1.804909691213134e-06
-0.6466666666666667,1.671518977162854e-06,-1.671518977162854e-06
-0.6433333333333333,1.5476424610657884e-06,-1.5476424610657884e-06
-0.6399999999999999,1.4326280545453454e-06,-1.4326280545453454e-06
-0.6366666666666667,1.3258663747820387e-06,-1.3258663747820387e-06
-0.6333333333333333,1.2267880922403848e-06,-1.2267880922403848e-06
-0.6299999999999999,1.1348614329392808e-06,-1.1348614329392808e-06
-0.6266666666666667,1.0495898269539912e-06,-1.0495898269539912e-06
-0.6233333333333333,9.705096952394884e-07,-9.705096952394884e-07
-0.62,8.971883672496919e-07,-8.971883672496919e-07
-0.6166666666666667,8.292221221960262e-07,-8.292221221960262e-07
-0.6133333333333333,7.662343471422088e-07,-7.662343471422088e-07
-0.61,7.078738054707543e-07,-7.078738054707543e-07
-0.6066666666666667,6.538130095803453e-07,-6.538130095803453e-07
-0.6033333333333333,6.037466919834294e-07,-6.037466919834294e-07
-0.6,5.573903692694577e-07,-5.573903692694577e-07
-0.5966666666666667,5.144789936825766e-07,-5.144789936825766e-07
-0.5933333333333333,4.747656873330186e-07,-4.747656873330186e-07
-0.59,4.3802055431991354e-07,-4.3802055431991354e-07
-0.5866666666666667,4.040295662896585e-07,-4.040295662896585e-07
-0.5833333333333333,3.725935171894237e-07,-3.725935171894237e-07
-0.58,3.4352704319953293e-07,-3.4352704319953293e-07
-0.5766666666666667,3.1665770404240857e-07,-3.1665770404240857e-07
-0.5733333333333333,2.918251220694226e-07,-2.918251220694226e-07
-0.57,2.6888017572108636e-07,-2.6888017572108636e-07
-0.5666666666666667,2.476842441406399e-07,-2.476842441406399e-07
-0.5633333333333332,2.2810849989693637e-07,-2.2810849989693637e-07
-0.56,2.1003324693960743e-07,-2.1003324693960743e-07
-0.5566666666666666,1.9334730106848563e-07,-1.9334730106848563e-07
-0.5533333333333332,1.7794741035029524e-07,-1.7794741035029524e-07
-0.55,1.6373771305908126e-07,-1.6373771305908126e-07
-0.5466666666666666,1.506292308531359e-07,-1.506292308531359e-07
-0.5433333333333332,1.3853939503050642e-07,-1.3853939503050642e-07
-0.54,1.273916038278663e-07,-1.273916038278663e-07
-0.5366666666666666,1.1711480884393166e-07,-1.1711480884393166e-07
-0.5333333333333333,1.0764312877895242e-07,-1.0764312877895242e-07
-0.53,9.891548878635247e-08,-9.891548878635247e-08
-0.5266666666666666,9.087528383168926e-08,-9.087528383168926e-08
-0.5233333333333333,8.347006454787565e-08,-8.347006454787565e-08
-0.52,7.665124416442863e-08,-7.665124416442863e-08
-0.5166666666666666,7.03738251725199e-08,-7.03738251725199e-08
-0.5133333333333333,6.459614446707953e-08,-6.459614446707953e-08
-0.51,5.927963578234339e-08,-5.927963578234338e-08
-0.5066666666666666,5.438860830826438e-08,-5.4388608308264366e-08
-0.5033333333333333,4.989004044229798e-08,-4.9890040442297965e-08
-0.5,4.575338769445797e-08,-4.575338769445794e-08
-0.4966666666666666,4.195040382335829e-08,-4.1950403823358265e-08
-0.4933333333333333,3.845497433743425e-08,-3.8454974337434223e-08
-0.49,3.5242961548792366e-08,-3.5242961548792326e-08
-0.4866666666666666,3.229206041739374e-08,-3.22920604173937e-08
-0.4833333333333333,2.9581664470615402e-08,-2.9581664470615355e-08
-0.48,2.7092741127882973e-08,-2.709274112788292e-08
-0.4766666666666667,2.480771580210169e-08,-2.480771580210163e-08
-0.4733333333333333,2.2710364189212135e-08,-2.2710364189212062e-08
-0.47,2.0785712194467402e-08,-2.0785712194467316e-08
-0.4666666666666667,1.901994297910293e-08,-1.901994297910283e-08
-0.46333333333333326,1.74003106440707e-08,-1.7400310644070588e-08
-0.45999999999999996,1.591506009853312e-08,-1.5915060098532987e-08
-0.45666666666666667,1.4553352689982265e-08,-1.4553352689982113e-08
-0.45333333333333325,1.330519720026366e-08,-1.3305197200263481e-08
-0.44999999999999996,1.2161385837529915e-08,-1.216138583752971e-08
-0.44666666666666666,1.111343487833286e-08,-1.1113434878332622e-08
-0.44333333333333325,1.0153529636762767e-08,-1.0153529636762489e-08
-0.43999999999999995,9.274473458847322e-09,-9.274473458846998e-09
-0.43666666666666665,8.469640460405951e-09,-8.469640460405574e-09
-0.43333333333333335,7.732931745299685e-09,-7.732931745299248e-09
-0.42999999999999994,7.058734858584805e-09,-7.058734858584299e-09
-0.42666666666666664,6.4418862455464886e-09,-6.441886245545901e-09
-0.42333333333333334,5.877636503015312e-09,-5.877636503014632e-09
-0.41999999999999993,5.3616182238175674e-09,-5.361618223816778e-09
-0.41666666666666663,4.889816248737218e-09,-4.889816248736303e-09
-0.41333333333333333,4.458540153027366e-09,-4.458540153026306e-09
-0.4099999999999999,4.064398806354874e-09,-4.064398806353645e-09
-0.4066666666666666,3.7042768561399443e-09,-3.70427685613852e-09
-0.4033333333333333,3.375312994612327e-09,-3.3753129946106777e-09
-0.3999999999999999,3.0748798795875615e-09,-3.0748798795856507e-09
-0.3966666666666666,2.800565588014865e-09,-2.800565588012653e-09
-0.3933333333333333,2.5501564897985175e-09,-2.5501564897959566e-09
-0.39,2.3216214372873343e-09,-2.3216214372843705e-09
-0.3866666666666666,2.1130971731925678e-09,-2.1130971731891383e-09
-0.3833333333333333,1.922874866570205e-09,-1.922874866566238e-09
-0.38,1.7493876929165114e-09,-1.7493876929119234e-09
-0.3766666666666666,1.5911993804070109e-09,-1.5911993804017058e-09
-0.3733333333333333,1.4469936498854058e-09,-1.446993649879273e-09
-0.37,1.3155644814059248e-09,-1.3155644813988367e-09
-0.3666666666666666,1.19580714497504e-09,-1.1958071449668493e-09
-0.3633333333333333,1.086709937648508e-09,-1.0867099376390454e-09
-0.36,9.87346573339414e-10,-9.87346573328485e-10
-0.3566666666666666,8.968691756018868e-10,-8.968691755892663e-10
-0.3533333333333333,8.145018272928469e-10,-8.145018272782766e-10
-0.35,7.395346343980351e-10,-7.395346343812173e-10
-0.3466666666666667,6.713182644555971e-10,-6.713182644361896e-10
-0.34333333333333327,6.092589229360276e-10,-6.092589229136367e-10
-0.33999999999999997,5.528137336565398e-10,-5.528137336307126e-10
-0.33666666666666667,5.014864918340008e-10,-5.014864918042163e-10
-0.33333333333333326,4.548237607274194e-10,-4.54823760693079e-10
-0.32999999999999996,4.124112849994297e-10,-4.124112849598454e-10
-0.32666666666666666,3.738706959489803e-10,-3.738706959033614e-10
-0.32333333333333325,3.388564856441346e-10,-3.3885648559157276e-10
-0.31999999999999995,3.0705322872502176e-10,-3.070532286644739e-10
-0.31666666666666665,2.781730322616417e-10,-2.7817303219190986e-10
-0.31333333333333324,2.519531955483471e-10,-2.519531954680562e-10
-0.30999999999999994,2.2815406310424537e-10,-2.2815406301181698e-10
-0.30666666666666664,2.0655705543450215e-10,-2.0655705532812512e-10
-0.30333333333333334,1.869628632982814e-10,-1.869628631758779e-10
-0.29999999999999993,1.6918979233191963e-10,-1.6918979219110645e-10
-0.29666666666666663,1.5307224589668738e-10,-1.5307224573473167e-10
-0.29333333333333333,1.3845933496530364e-10,-1.384593347790723e-10
-0.2899999999999999,1.2521360473542662e-10,-1.2521360452132855e-10
-0.2866666666666666,1.1320986846676394e-10,-1.1320986822068401e-10
-0.2833333333333333,1.0233413978594043e-10,-1.0233413950316406e-10
-0.2799999999999999,9.248265539424794e-11,-9.2482655069375e-11
-0.2766666666666666,8.356098075186189e-11,-8.356098037870847e-11
-0.2733333333333333,7.548319190198903e-11,-7.548319147347519e-11
-0.2699999999999999,6.817112714315897e-11,-6.817112665118089e-11
-0.2666666666666666,6.155370276082117e-11,-6.155370219610512e-11
-0.2633333333333333,5.5566287493636255e-11,-5.5566286845572104e-11
-0.2599999999999999,5.0150130838202407e-11,-5.01501300946538e-11
-0.2566666666666666,4.5251840691094423e-11,-4.5251839838182445e-11
-0.2533333333333333,4.082290619147882e-11,-4.082290521333536e-11
-0.25,3.6819261963516193e-11,-3.681926084200298e-11
-0.2466666666666666,3.3200890267371686e-11,-3.3200888981760275e-11
-0.2433333333333333,2.993145785294269e-11,-2.993145637954993e-11
-0.24,2.6977984573175586e-11,-2.6977982884948604e-11
-0.23666666666666658,2.4310541055834856e-11,-2.4310539121878668e-11
-0.23333333333333328,2.1901972955336097e-11,-2.1901970740375953e-11
-0.22999999999999998,1.9727649511276562e-11,-1.972764697504624e-11
-0.22666666666666657,1.7765234328914075e-11,-1.7765231425460035e-11
-0.22333333333333327,1.5994476470342347e-11,-1.5994473147232396e-11
-0.21999999999999997,1.4397020104640909e-11,-1.4397016302064442e-11
-0.21666666666666656,1.2956231111937553e-11,-1.2956226761682787e-11
-0.21333333333333326,1.1657039171089009e-11,-1.1657034195380654e-11
-0.20999999999999996,1.0485793984517012e-11,-1.048578829469564e-11
-0.20666666666666667,9.430134407463772e-12,-9.430127902485685e-12
-0.20333333333333325,8.47886935336046e-12,-8.478861918094059e-12
-0.19999999999999996,7.621869442867118e-12,-7.621860946158607e-12
-0.19666666666666666,6.8499684521127724e-12,-6.849958744590503e-12
-0.19333333333333325,6.1548736963766526e-12,-6.154862607959356e-12
-0.18999999999999995,5.529084559477308e-12,-5.529071896546967e-12
-0.18666666666666665,4.965818447012007e-12,-4.965803989206966e-12
-0.18333333333333324,4.458943503809406e-12,-4.4589270003875714e-12
-0.17999999999999994,4.002917492977936e-12,-4.002898658693402e-12
-0.17666666666666664,3.5927322861693e-12,-3.592710796598393e-12
-0.17333333333333323,3.2238634625227054e-12,-3.22383894876718e-12
-0.16999999999999993,2.892224557563132e-12,-2.892196600248922e-12
-0.16666666666666663,2.5941255434291953e-12,-2.5940936659086372e-12
-0.16333333333333333,2.3262351585041357e-12,-2.326198819157752e-12
-0.15999999999999992,2.0855467380983976e-12,-2.085505321619011e-12
-0.15666666666666662,1.869347228539985e-12,-1.869300036066963e-12
-0.15333333333333332,1.6751890951071489e-12,-1.6751353330616964e-12
-0.1499999999999999,1.5008648599053407e-12,-1.5008036273587957e-12
-0.1466666666666666,1.3443840292463352e-12,-1.3443143036320673e-12
-0.1433333333333333,1.2039521915171152e-12,-1.203872812472634e-12
-0.1399999999999999,1.077952086100209e-12,-1.0778617371990917e-12
-0.1366666666666666,9.649264617789901e-13,-9.648236498819103e-13
-0.1333333333333333,8.63562559377715e-13,-8.634455912977603e-13
-0.1299999999999999,7.726780682752979e-13,-7.725450244144784e-13
-0.1266666666666666,6.912084200174452e-13,-6.910571245882681e-13
-0.1233333333333333,6.181952946426776e-13,-6.18023282040373e-13
-0.12,5.52776226637864e-13,-5.52580703474624e-13
-0.11666666666666659,4.941752077397922e-13,-4.939530099915255e-13
-0.11333333333333329,4.416941931883443e-13,-4.4144173783617e-13
-0.10999999999999999,3.9470542659146887e-13,-3.9441865706357533e-13
-0.10666666666666658,3.526445063552781e-13,-3.5231883098886375e-13
-0.10333333333333328,3.150041237299034e-13,-3.146343463766043e-13
-0.09999999999999998,2.813284089837818e-13,-2.8090865077402314e-13
-0.09666666666666657,2.512078281016161e-13,-2.507314392623334e-13
-0.09333333333333327,2.2427457775468964e-13,-2.237340382393104e-13
-0.08999999999999997,2.0019843116341417e-13,-1.9958523870115636e-13
-0.08666666666666656,1.786829919033064e-13,-1.7798753590482364e-13
-0.08333333333333326,1.5946231673616222e-13,-1.5867373630221726e-13
-0.07999999999999996,1.4229787221343417e-13,-1.4140389628023456e-13
-0.07666666666666666,1.2697579313171306e-13,-1.2596256054814887e-13
-0.07333333333333325,1.1330441395021113e-13,-1.1215627101554844e-13
-0.06999999999999995,1.0111204703485383e-13,-9.981131972717311e-14
-0.06666666666666665,9.024498409777627e-14,-8.87717218899485e-14
-0.06333333333333324,8.056569947768487e-14,-7.88973872648833e-14
-0.05999999999999994,7.195123597638074e-14,-7.006247022250472e-14
-0.05666666666666664,6.429175584906603e-14,-6.215388059397091e-14
-0.05333333333333323,5.748924125817319e-14,-5.506993910765989e-14
-0.04999999999999993,5.14563300584898e-14,-4.871916269838032e-14
-0.046666666666666634,4.6115274199863706e-14,-4.301916632725968e-14
-0.043333333333333224,4.1397009326267047e-14,-3.789566916756626e-14
-0.039999999999999925,3.7240325328713536e-14,-3.328159410660402e-14
-0.036666666666666625,3.359112868580095e-14,-2.911625049677836e-14
-0.033333333333333326,3.04017884098604e-14,-2.5344590969288893e-14
-0.029999999999999916,2.7630558318385342e-14,-2.1916533910056287e-14
-0.026666666666666616,2.5241069178408654e-14,-1.8786343896969386e-14
-0.023333333333333317,2.3201885033931533e-14,-1.591206301706778e-14
-0.019999999999999907,2.1486118730946767e-14,-1.3254986527842084e-14
-0.016666666666666607,2.0071102308040276e-14,-1.0779176803706266e-14
-0.013333333333333308,1.8938108529572422e-14,-8.451009921519612e-15
-0.009999999999999898,1.807212040917114e-14,-6.238749591832841e-15
-0.006666666666666599,1.746164610949806e-14,-4.112143438732217e-15
-0.0033333333333332993,1.709857711548939e-14,-2.0420368736846676e-15
0.0,1.6978088067743554e-14,0.0
0.0033333333333334103,1.7098577115489472e-14,2.042036873684857e-15
0.006666666666666821,1.7461646109498093e-14,4.1121434387323415e-15
0.010000000000000009,1.807212040917114e-14,6.238749591832841e-15
0.01333333333333342,1.8938108529572422e-14,8.451009921519612e-15
0.01666666666666683,2.00711023080403e-14,1.0779176803706355e-14
0.020000000000000018,2.148611873094683e-14,1.3254986527842267e-14
0.023333333333333428,2.3201885033931646e-14,1.5912063017067946e-14
0.02666666666666684,2.5241069178408765e-14,1.878634389696959e-14
0.030000000000000027,2.7630558318385342e-14,2.1916533910056287e-14
0.03333333333333344,3.04017884098604e-14,2.5344590969288893e-14
0.036666666666666625,3.359112868580095e-14,2.911625049677836e-14
0.040000000000000036,3.7240325328713757e-14,3.3281594106604304e-14
0.043333333333333446,4.139700932626731e-14,3.789566916756655e-14
0.046666666666666634,4.6115274199863706e-14,4.301916632725968e-14
